          x(cm)         Temp(K)           dT/dx
       0.000000         463.000       3.958E+03
       0.000010         463.040       3.959E+03
       0.000020         463.079       3.960E+03
       0.000030         463.119       3.961E+03
       0.000040         463.158       3.962E+03
       0.000050         463.198       3.963E+03
       0.000060         463.238       3.964E+03
       0.000070         463.277       3.965E+03
       0.000080         463.317       3.966E+03
       0.000090         463.357       3.967E+03
       0.000100         463.396       3.968E+03
       0.000110         463.436       3.969E+03
       0.000120         463.476       3.970E+03
       0.000130         463.515       3.971E+03
       0.000140         463.555       3.972E+03
       0.000150         463.595       3.973E+03
       0.000160         463.635       3.974E+03
       0.000170         463.674       3.975E+03
       0.000180         463.714       3.976E+03
       0.000190         463.754       3.977E+03
       0.000200         463.794       3.977E+03
       0.000210         463.833       3.978E+03
       0.000220         463.873       3.979E+03
       0.000230         463.913       3.980E+03
       0.000240         463.953       3.981E+03
       0.000250         463.993       3.982E+03
       0.000260         464.032       3.983E+03
       0.000270         464.072       3.984E+03
       0.000280         464.112       3.985E+03
       0.000290         464.152       3.986E+03
       0.000300         464.192       3.987E+03
       0.000310         464.232       3.988E+03
       0.000320         464.272       3.989E+03
       0.000330         464.311       3.990E+03
       0.000340         464.351       3.991E+03
       0.000350         464.391       3.992E+03
       0.000360         464.431       3.993E+03
       0.000370         464.471       3.994E+03
       0.000380         464.511       3.995E+03
       0.000390         464.551       3.996E+03
       0.000400         464.591       3.997E+03
       0.000410         464.631       3.998E+03
       0.000420         464.671       3.999E+03
       0.000430         464.711       4.000E+03
       0.000440         464.751       4.001E+03
       0.000450         464.791       4.002E+03
       0.000460         464.831       4.003E+03
       0.000470         464.871       4.004E+03
       0.000480         464.911       4.005E+03
       0.000490         464.951       4.006E+03
       0.000500         464.991       4.007E+03
       0.000510         465.031       4.008E+03
       0.000520         465.071       4.009E+03
       0.000530         465.112       4.010E+03
       0.000540         465.152       4.011E+03
       0.000550         465.192       4.012E+03
       0.000560         465.232       4.013E+03
       0.000570         465.272       4.014E+03
       0.000580         465.312       4.015E+03
       0.000590         465.352       4.016E+03
       0.000600         465.392       4.017E+03
       0.000610         465.433       4.018E+03
       0.000620         465.473       4.019E+03
       0.000630         465.513       4.020E+03
       0.000640         465.553       4.021E+03
       0.000650         465.593       4.022E+03
       0.000660         465.634       4.023E+03
       0.000670         465.674       4.024E+03
       0.000680         465.714       4.025E+03
       0.000690         465.754       4.026E+03
       0.000700         465.795       4.027E+03
       0.000710         465.835       4.028E+03
       0.000720         465.875       4.029E+03
       0.000730         465.915       4.030E+03
       0.000740         465.956       4.031E+03
       0.000750         465.996       4.032E+03
       0.000760         466.036       4.033E+03
       0.000770         466.077       4.034E+03
       0.000780         466.117       4.035E+03
       0.000790         466.157       4.036E+03
       0.000800         466.198       4.037E+03
       0.000810         466.238       4.038E+03
       0.000820         466.279       4.039E+03
       0.000830         466.319       4.040E+03
       0.000840         466.359       4.041E+03
       0.000850         466.400       4.042E+03
       0.000860         466.440       4.043E+03
       0.000870         466.481       4.044E+03
       0.000880         466.521       4.045E+03
       0.000890         466.561       4.046E+03
       0.000900         466.602       4.047E+03
       0.000910         466.642       4.048E+03
       0.000920         466.683       4.049E+03
       0.000930         466.723       4.050E+03
       0.000940         466.764       4.051E+03
       0.000950         466.804       4.052E+03
       0.000960         466.845       4.053E+03
       0.000970         466.885       4.054E+03
       0.000980         466.926       4.055E+03
       0.000990         466.967       4.056E+03
       0.001000         467.007       4.057E+03
       0.001010         467.048       4.058E+03
       0.001020         467.088       4.059E+03
       0.001030         467.129       4.060E+03
       0.001040         467.169       4.061E+03
       0.001050         467.210       4.062E+03
       0.001060         467.251       4.063E+03
       0.001070         467.291       4.064E+03
       0.001080         467.332       4.065E+03
       0.001090         467.373       4.066E+03
       0.001100         467.413       4.067E+03
       0.001110         467.454       4.068E+03
       0.001120         467.495       4.069E+03
       0.001130         467.535       4.070E+03
       0.001140         467.576       4.071E+03
       0.001150         467.617       4.072E+03
       0.001160         467.657       4.073E+03
       0.001170         467.698       4.074E+03
       0.001180         467.739       4.075E+03
       0.001190         467.780       4.076E+03
       0.001200         467.820       4.077E+03
       0.001210         467.861       4.078E+03
       0.001220         467.902       4.079E+03
       0.001230         467.943       4.080E+03
       0.001240         467.984       4.081E+03
       0.001250         468.024       4.082E+03
       0.001260         468.065       4.083E+03
       0.001270         468.106       4.084E+03
       0.001280         468.147       4.085E+03
       0.001290         468.188       4.086E+03
       0.001300         468.229       4.087E+03
       0.001310         468.270       4.088E+03
       0.001320         468.310       4.089E+03
       0.001330         468.351       4.090E+03
       0.001340         468.392       4.091E+03
       0.001350         468.433       4.092E+03
       0.001360         468.474       4.093E+03
       0.001370         468.515       4.094E+03
       0.001380         468.556       4.095E+03
       0.001390         468.597       4.096E+03
       0.001400         468.638       4.097E+03
       0.001410         468.679       4.098E+03
       0.001420         468.720       4.099E+03
       0.001430         468.761       4.100E+03
       0.001440         468.802       4.101E+03
       0.001450         468.843       4.102E+03
       0.001460         468.884       4.103E+03
       0.001470         468.925       4.104E+03
       0.001480         468.966       4.105E+03
       0.001490         469.007       4.106E+03
       0.001500         469.048       4.107E+03
       0.001510         469.089       4.108E+03
       0.001520         469.130       4.109E+03
       0.001530         469.171       4.110E+03
       0.001540         469.212       4.111E+03
       0.001550         469.254       4.112E+03
       0.001560         469.295       4.113E+03
       0.001570         469.336       4.114E+03
       0.001580         469.377       4.115E+03
       0.001590         469.418       4.116E+03
       0.001600         469.459       4.117E+03
       0.001610         469.501       4.118E+03
       0.001620         469.542       4.119E+03
       0.001630         469.583       4.120E+03
       0.001640         469.624       4.122E+03
       0.001650         469.665       4.123E+03
       0.001660         469.707       4.124E+03
       0.001670         469.748       4.125E+03
       0.001680         469.789       4.126E+03
       0.001690         469.830       4.127E+03
       0.001700         469.872       4.128E+03
       0.001710         469.913       4.129E+03
       0.001720         469.954       4.130E+03
       0.001730         469.995       4.131E+03
       0.001740         470.037       4.132E+03
       0.001750         470.078       4.133E+03
       0.001760         470.119       4.134E+03
       0.001770         470.161       4.135E+03
       0.001780         470.202       4.136E+03
       0.001790         470.244       4.137E+03
       0.001800         470.285       4.138E+03
       0.001810         470.326       4.139E+03
       0.001820         470.368       4.140E+03
       0.001830         470.409       4.141E+03
       0.001840         470.450       4.142E+03
       0.001850         470.492       4.143E+03
       0.001860         470.533       4.144E+03
       0.001870         470.575       4.145E+03
       0.001880         470.616       4.146E+03
       0.001890         470.658       4.147E+03
       0.001900         470.699       4.148E+03
       0.001910         470.741       4.149E+03
       0.001920         470.782       4.150E+03
       0.001930         470.824       4.151E+03
       0.001940         470.865       4.153E+03
       0.001950         470.907       4.154E+03
       0.001960         470.948       4.155E+03
       0.001970         470.990       4.156E+03
       0.001980         471.031       4.157E+03
       0.001990         471.073       4.158E+03
       0.002000         471.115       4.159E+03
       0.002010         471.156       4.160E+03
       0.002020         471.198       4.161E+03
       0.002030         471.239       4.162E+03
       0.002040         471.281       4.163E+03
       0.002050         471.323       4.164E+03
       0.002060         471.364       4.165E+03
       0.002070         471.406       4.166E+03
       0.002080         471.448       4.167E+03
       0.002090         471.489       4.168E+03
       0.002100         471.531       4.169E+03
       0.002110         471.573       4.170E+03
       0.002120         471.614       4.171E+03
       0.002130         471.656       4.172E+03
       0.002140         471.698       4.173E+03
       0.002150         471.740       4.174E+03
       0.002160         471.781       4.175E+03
       0.002170         471.823       4.177E+03
       0.002180         471.865       4.178E+03
       0.002190         471.907       4.179E+03
       0.002200         471.948       4.180E+03
       0.002210         471.990       4.181E+03
       0.002220         472.032       4.182E+03
       0.002230         472.074       4.183E+03
       0.002240         472.116       4.184E+03
       0.002250         472.158       4.185E+03
       0.002260         472.199       4.186E+03
       0.002270         472.241       4.187E+03
       0.002280         472.283       4.188E+03
       0.002290         472.325       4.189E+03
       0.002300         472.367       4.190E+03
       0.002310         472.409       4.191E+03
       0.002320         472.451       4.192E+03
       0.002330         472.493       4.193E+03
       0.002340         472.535       4.194E+03
       0.002350         472.577       4.195E+03
       0.002360         472.619       4.196E+03
       0.002370         472.660       4.198E+03
       0.002380         472.702       4.199E+03
       0.002390         472.744       4.200E+03
       0.002400         472.786       4.201E+03
       0.002410         472.828       4.202E+03
       0.002420         472.870       4.203E+03
       0.002430         472.913       4.204E+03
       0.002440         472.955       4.205E+03
       0.002450         472.997       4.206E+03
       0.002460         473.039       4.207E+03
       0.002470         473.081       4.208E+03
       0.002480         473.123       4.209E+03
       0.002490         473.165       4.210E+03
       0.002500         473.207       4.211E+03
       0.002510         473.249       4.212E+03
       0.002520         473.291       4.213E+03
       0.002530         473.333       4.214E+03
       0.002540         473.376       4.216E+03
       0.002550         473.418       4.217E+03
       0.002560         473.460       4.218E+03
       0.002570         473.502       4.219E+03
       0.002580         473.544       4.220E+03
       0.002590         473.587       4.221E+03
       0.002600         473.629       4.222E+03
       0.002610         473.671       4.223E+03
       0.002620         473.713       4.224E+03
       0.002630         473.755       4.225E+03
       0.002640         473.798       4.226E+03
       0.002650         473.840       4.227E+03
       0.002660         473.882       4.228E+03
       0.002670         473.925       4.229E+03
       0.002680         473.967       4.230E+03
       0.002690         474.009       4.232E+03
       0.002700         474.051       4.233E+03
       0.002710         474.094       4.234E+03
       0.002720         474.136       4.235E+03
       0.002730         474.178       4.236E+03
       0.002740         474.221       4.237E+03
       0.002750         474.263       4.238E+03
       0.002760         474.306       4.239E+03
       0.002770         474.348       4.240E+03
       0.002780         474.390       4.241E+03
       0.002790         474.433       4.242E+03
       0.002800         474.475       4.243E+03
       0.002810         474.518       4.244E+03
       0.002820         474.560       4.245E+03
       0.002830         474.603       4.247E+03
       0.002840         474.645       4.248E+03
       0.002850         474.688       4.249E+03
       0.002860         474.730       4.250E+03
       0.002870         474.773       4.251E+03
       0.002880         474.815       4.252E+03
       0.002890         474.858       4.253E+03
       0.002900         474.900       4.254E+03
       0.002910         474.943       4.255E+03
       0.002920         474.985       4.256E+03
       0.002930         475.028       4.257E+03
       0.002940         475.070       4.258E+03
       0.002950         475.113       4.259E+03
       0.002960         475.156       4.261E+03
       0.002970         475.198       4.262E+03
       0.002980         475.241       4.263E+03
       0.002990         475.283       4.264E+03
       0.003000         475.326       4.265E+03
       0.003010         475.369       4.266E+03
       0.003020         475.411       4.267E+03
       0.003030         475.454       4.268E+03
       0.003040         475.497       4.269E+03
       0.003050         475.539       4.270E+03
       0.003060         475.582       4.271E+03
       0.003070         475.625       4.272E+03
       0.003080         475.668       4.274E+03
       0.003090         475.710       4.275E+03
       0.003100         475.753       4.276E+03
       0.003110         475.796       4.277E+03
       0.003120         475.839       4.278E+03
       0.003130         475.881       4.279E+03
       0.003140         475.924       4.280E+03
       0.003150         475.967       4.281E+03
       0.003160         476.010       4.282E+03
       0.003170         476.053       4.283E+03
       0.003180         476.096       4.284E+03
       0.003190         476.138       4.285E+03
       0.003200         476.181       4.287E+03
       0.003210         476.224       4.288E+03
       0.003220         476.267       4.289E+03
       0.003230         476.310       4.290E+03
       0.003240         476.353       4.291E+03
       0.003250         476.396       4.292E+03
       0.003260         476.439       4.293E+03
       0.003270         476.482       4.294E+03
       0.003280         476.524       4.295E+03
       0.003290         476.567       4.296E+03
       0.003300         476.610       4.297E+03
       0.003310         476.653       4.299E+03
       0.003320         476.696       4.300E+03
       0.003330         476.739       4.301E+03
       0.003340         476.782       4.302E+03
       0.003350         476.825       4.303E+03
       0.003360         476.868       4.304E+03
       0.003370         476.912       4.305E+03
       0.003380         476.955       4.306E+03
       0.003390         476.998       4.307E+03
       0.003400         477.041       4.308E+03
       0.003410         477.084       4.310E+03
       0.003420         477.127       4.311E+03
       0.003430         477.170       4.312E+03
       0.003440         477.213       4.313E+03
       0.003450         477.256       4.314E+03
       0.003460         477.299       4.315E+03
       0.003470         477.343       4.316E+03
       0.003480         477.386       4.317E+03
       0.003490         477.429       4.318E+03
       0.003500         477.472       4.319E+03
       0.003510         477.515       4.321E+03
       0.003520         477.559       4.322E+03
       0.003530         477.602       4.323E+03
       0.003540         477.645       4.324E+03
       0.003550         477.688       4.325E+03
       0.003560         477.731       4.326E+03
       0.003570         477.775       4.327E+03
       0.003580         477.818       4.328E+03
       0.003590         477.861       4.329E+03
       0.003600         477.905       4.330E+03
       0.003610         477.948       4.332E+03
       0.003620         477.991       4.333E+03
       0.003630         478.035       4.334E+03
       0.003640         478.078       4.335E+03
       0.003650         478.121       4.336E+03
       0.003660         478.165       4.337E+03
       0.003670         478.208       4.338E+03
       0.003680         478.251       4.339E+03
       0.003690         478.295       4.340E+03
       0.003700         478.338       4.342E+03
       0.003710         478.382       4.343E+03
       0.003720         478.425       4.344E+03
       0.003730         478.469       4.345E+03
       0.003740         478.512       4.346E+03
       0.003750         478.555       4.347E+03
       0.003760         478.599       4.348E+03
       0.003770         478.642       4.349E+03
       0.003780         478.686       4.350E+03
       0.003790         478.729       4.352E+03
       0.003800         478.773       4.353E+03
       0.003810         478.816       4.354E+03
       0.003820         478.860       4.355E+03
       0.003830         478.904       4.356E+03
       0.003840         478.947       4.357E+03
       0.003850         478.991       4.358E+03
       0.003860         479.034       4.359E+03
       0.003870         479.078       4.361E+03
       0.003880         479.122       4.362E+03
       0.003890         479.165       4.363E+03
       0.003900         479.209       4.364E+03
       0.003910         479.252       4.365E+03
       0.003920         479.296       4.366E+03
       0.003930         479.340       4.367E+03
       0.003940         479.383       4.368E+03
       0.003950         479.427       4.369E+03
       0.003960         479.471       4.371E+03
       0.003970         479.515       4.372E+03
       0.003980         479.558       4.373E+03
       0.003990         479.602       4.374E+03
       0.004000         479.646       4.375E+03
       0.004010         479.689       4.376E+03
       0.004020         479.733       4.377E+03
       0.004030         479.777       4.378E+03
       0.004040         479.821       4.380E+03
       0.004050         479.865       4.381E+03
       0.004060         479.908       4.382E+03
       0.004070         479.952       4.383E+03
       0.004080         479.996       4.384E+03
       0.004090         480.040       4.385E+03
       0.004100         480.084       4.386E+03
       0.004110         480.128       4.387E+03
       0.004120         480.172       4.389E+03
       0.004130         480.215       4.390E+03
       0.004140         480.259       4.391E+03
       0.004150         480.303       4.392E+03
       0.004160         480.347       4.393E+03
       0.004170         480.391       4.394E+03
       0.004180         480.435       4.395E+03
       0.004190         480.479       4.397E+03
       0.004200         480.523       4.398E+03
       0.004210         480.567       4.399E+03
       0.004220         480.611       4.400E+03
       0.004230         480.655       4.401E+03
       0.004240         480.699       4.402E+03
       0.004250         480.743       4.403E+03
       0.004260         480.787       4.404E+03
       0.004270         480.831       4.406E+03
       0.004280         480.875       4.407E+03
       0.004290         480.919       4.408E+03
       0.004300         480.963       4.409E+03
       0.004310         481.007       4.410E+03
       0.004320         481.052       4.411E+03
       0.004330         481.096       4.412E+03
       0.004340         481.140       4.414E+03
       0.004350         481.184       4.415E+03
       0.004360         481.228       4.416E+03
       0.004370         481.272       4.417E+03
       0.004380         481.316       4.418E+03
       0.004390         481.361       4.419E+03
       0.004400         481.405       4.420E+03
       0.004410         481.449       4.422E+03
       0.004420         481.493       4.423E+03
       0.004430         481.537       4.424E+03
       0.004440         481.582       4.425E+03
       0.004450         481.626       4.426E+03
       0.004460         481.670       4.427E+03
       0.004470         481.715       4.428E+03
       0.004480         481.759       4.430E+03
       0.004490         481.803       4.431E+03
       0.004500         481.847       4.432E+03
       0.004510         481.892       4.433E+03
       0.004520         481.936       4.434E+03
       0.004530         481.980       4.435E+03
       0.004540         482.025       4.436E+03
       0.004550         482.069       4.438E+03
       0.004560         482.114       4.439E+03
       0.004570         482.158       4.440E+03
       0.004580         482.202       4.441E+03
       0.004590         482.247       4.442E+03
       0.004600         482.291       4.443E+03
       0.004610         482.336       4.444E+03
       0.004620         482.380       4.446E+03
       0.004630         482.425       4.447E+03
       0.004640         482.469       4.448E+03
       0.004650         482.513       4.449E+03
       0.004660         482.558       4.450E+03
       0.004670         482.602       4.451E+03
       0.004680         482.647       4.453E+03
       0.004690         482.692       4.454E+03
       0.004700         482.736       4.455E+03
       0.004710         482.781       4.456E+03
       0.004720         482.825       4.457E+03
       0.004730         482.870       4.458E+03
       0.004740         482.914       4.459E+03
       0.004750         482.959       4.461E+03
       0.004760         483.004       4.462E+03
       0.004770         483.048       4.463E+03
       0.004780         483.093       4.464E+03
       0.004790         483.137       4.465E+03
       0.004800         483.182       4.466E+03
       0.004810         483.227       4.468E+03
       0.004820         483.272       4.469E+03
       0.004830         483.316       4.470E+03
       0.004840         483.361       4.471E+03
       0.004850         483.406       4.472E+03
       0.004860         483.450       4.473E+03
       0.004870         483.495       4.475E+03
       0.004880         483.540       4.476E+03
       0.004890         483.585       4.477E+03
       0.004900         483.629       4.478E+03
       0.004910         483.674       4.479E+03
       0.004920         483.719       4.480E+03
       0.004930         483.764       4.482E+03
       0.004940         483.809       4.483E+03
       0.004950         483.853       4.484E+03
       0.004960         483.898       4.485E+03
       0.004970         483.943       4.486E+03
       0.004980         483.988       4.487E+03
       0.004990         484.033       4.489E+03
       0.005000         484.078       4.490E+03
       0.005010         484.123       4.491E+03
       0.005020         484.168       4.492E+03
       0.005030         484.213       4.493E+03
       0.005040         484.257       4.494E+03
       0.005050         484.302       4.496E+03
       0.005060         484.347       4.497E+03
       0.005070         484.392       4.498E+03
       0.005080         484.437       4.499E+03
       0.005090         484.482       4.500E+03
       0.005100         484.527       4.501E+03
       0.005110         484.572       4.503E+03
       0.005120         484.617       4.504E+03
       0.005130         484.662       4.505E+03
       0.005140         484.707       4.506E+03
       0.005150         484.753       4.507E+03
       0.005160         484.798       4.508E+03
       0.005170         484.843       4.510E+03
       0.005180         484.888       4.511E+03
       0.005190         484.933       4.512E+03
       0.005200         484.978       4.513E+03
       0.005210         485.023       4.514E+03
       0.005220         485.068       4.516E+03
       0.005230         485.114       4.517E+03
       0.005240         485.159       4.518E+03
       0.005250         485.204       4.519E+03
       0.005260         485.249       4.520E+03
       0.005270         485.294       4.521E+03
       0.005280         485.339       4.523E+03
       0.005290         485.385       4.524E+03
       0.005300         485.430       4.525E+03
       0.005310         485.475       4.526E+03
       0.005320         485.520       4.527E+03
       0.005330         485.566       4.529E+03
       0.005340         485.611       4.530E+03
       0.005350         485.656       4.531E+03
       0.005360         485.702       4.532E+03
       0.005370         485.747       4.533E+03
       0.005380         485.792       4.534E+03
       0.005390         485.838       4.536E+03
       0.005400         485.883       4.537E+03
       0.005410         485.928       4.538E+03
       0.005420         485.974       4.539E+03
       0.005430         486.019       4.540E+03
       0.005440         486.065       4.542E+03
       0.005450         486.110       4.543E+03
       0.005460         486.155       4.544E+03
       0.005470         486.201       4.545E+03
       0.005480         486.246       4.546E+03
       0.005490         486.292       4.548E+03
       0.005500         486.337       4.549E+03
       0.005510         486.383       4.550E+03
       0.005520         486.428       4.551E+03
       0.005530         486.474       4.552E+03
       0.005540         486.519       4.554E+03
       0.005550         486.565       4.555E+03
       0.005560         486.610       4.556E+03
       0.005570         486.656       4.557E+03
       0.005580         486.702       4.558E+03
       0.005590         486.747       4.559E+03
       0.005600         486.793       4.561E+03
       0.005610         486.838       4.562E+03
       0.005620         486.884       4.563E+03
       0.005630         486.930       4.564E+03
       0.005640         486.975       4.565E+03
       0.005650         487.021       4.567E+03
       0.005660         487.067       4.568E+03
       0.005670         487.112       4.569E+03
       0.005680         487.158       4.570E+03
       0.005690         487.204       4.571E+03
       0.005700         487.250       4.573E+03
       0.005710         487.295       4.574E+03
       0.005720         487.341       4.575E+03
       0.005730         487.387       4.576E+03
       0.005740         487.433       4.578E+03
       0.005750         487.478       4.579E+03
       0.005760         487.524       4.580E+03
       0.005770         487.570       4.581E+03
       0.005780         487.616       4.582E+03
       0.005790         487.662       4.584E+03
       0.005800         487.707       4.585E+03
       0.005810         487.753       4.586E+03
       0.005820         487.799       4.587E+03
       0.005830         487.845       4.588E+03
       0.005840         487.891       4.590E+03
       0.005850         487.937       4.591E+03
       0.005860         487.983       4.592E+03
       0.005870         488.029       4.593E+03
       0.005880         488.075       4.594E+03
       0.005890         488.120       4.596E+03
       0.005900         488.166       4.597E+03
       0.005910         488.212       4.598E+03
       0.005920         488.258       4.599E+03
       0.005930         488.304       4.600E+03
       0.005940         488.350       4.602E+03
       0.005950         488.396       4.603E+03
       0.005960         488.442       4.604E+03
       0.005970         488.489       4.605E+03
       0.005980         488.535       4.607E+03
       0.005990         488.581       4.608E+03
       0.006000         488.627       4.609E+03
       0.006010         488.673       4.610E+03
       0.006020         488.719       4.611E+03
       0.006030         488.765       4.613E+03
       0.006040         488.811       4.614E+03
       0.006050         488.857       4.615E+03
       0.006060         488.904       4.616E+03
       0.006070         488.950       4.617E+03
       0.006080         488.996       4.619E+03
       0.006090         489.042       4.620E+03
       0.006100         489.088       4.621E+03
       0.006110         489.134       4.622E+03
       0.006120         489.181       4.624E+03
       0.006130         489.227       4.625E+03
       0.006140         489.273       4.626E+03
       0.006150         489.319       4.627E+03
       0.006160         489.366       4.628E+03
       0.006170         489.412       4.630E+03
       0.006180         489.458       4.631E+03
       0.006190         489.505       4.632E+03
       0.006200         489.551       4.633E+03
       0.006210         489.597       4.635E+03
       0.006220         489.644       4.636E+03
       0.006230         489.690       4.637E+03
       0.006240         489.736       4.638E+03
       0.006250         489.783       4.640E+03
       0.006260         489.829       4.641E+03
       0.006270         489.876       4.642E+03
       0.006280         489.922       4.643E+03
       0.006290         489.968       4.644E+03
       0.006300         490.015       4.646E+03
       0.006310         490.061       4.647E+03
       0.006320         490.108       4.648E+03
       0.006330         490.154       4.649E+03
       0.006340         490.201       4.651E+03
       0.006350         490.247       4.652E+03
       0.006360         490.294       4.653E+03
       0.006370         490.340       4.654E+03
       0.006380         490.387       4.656E+03
       0.006390         490.434       4.657E+03
       0.006400         490.480       4.658E+03
       0.006410         490.527       4.659E+03
       0.006420         490.573       4.660E+03
       0.006430         490.620       4.662E+03
       0.006440         490.667       4.663E+03
       0.006450         490.713       4.664E+03
       0.006460         490.760       4.665E+03
       0.006470         490.807       4.667E+03
       0.006480         490.853       4.668E+03
       0.006490         490.900       4.669E+03
       0.006500         490.947       4.670E+03
       0.006510         490.993       4.672E+03
       0.006520         491.040       4.673E+03
       0.006530         491.087       4.674E+03
       0.006540         491.133       4.675E+03
       0.006550         491.180       4.677E+03
       0.006560         491.227       4.678E+03
       0.006570         491.274       4.679E+03
       0.006580         491.321       4.680E+03
       0.006590         491.367       4.682E+03
       0.006600         491.414       4.683E+03
       0.006610         491.461       4.684E+03
       0.006620         491.508       4.685E+03
       0.006630         491.555       4.687E+03
       0.006640         491.602       4.688E+03
       0.006650         491.649       4.689E+03
       0.006660         491.695       4.690E+03
       0.006670         491.742       4.692E+03
       0.006680         491.789       4.693E+03
       0.006690         491.836       4.694E+03
       0.006700         491.883       4.695E+03
       0.006710         491.930       4.697E+03
       0.006720         491.977       4.698E+03
       0.006730         492.024       4.699E+03
       0.006740         492.071       4.700E+03
       0.006750         492.118       4.702E+03
       0.006760         492.165       4.703E+03
       0.006770         492.212       4.704E+03
       0.006780         492.259       4.705E+03
       0.006790         492.306       4.707E+03
       0.006800         492.353       4.708E+03
       0.006810         492.400       4.709E+03
       0.006820         492.447       4.710E+03
       0.006830         492.495       4.712E+03
       0.006840         492.542       4.713E+03
       0.006850         492.589       4.714E+03
       0.006860         492.636       4.715E+03
       0.006870         492.683       4.717E+03
       0.006880         492.730       4.718E+03
       0.006890         492.778       4.719E+03
       0.006900         492.825       4.720E+03
       0.006910         492.872       4.722E+03
       0.006920         492.919       4.723E+03
       0.006930         492.966       4.724E+03
       0.006940         493.014       4.726E+03
       0.006950         493.061       4.727E+03
       0.006960         493.108       4.728E+03
       0.006970         493.155       4.729E+03
       0.006980         493.203       4.731E+03
       0.006990         493.250       4.732E+03
       0.007000         493.297       4.733E+03
       0.007010         493.345       4.734E+03
       0.007020         493.392       4.736E+03
       0.007030         493.439       4.737E+03
       0.007040         493.487       4.738E+03
       0.007050         493.534       4.739E+03
       0.007060         493.582       4.741E+03
       0.007070         493.629       4.742E+03
       0.007080         493.676       4.743E+03
       0.007090         493.724       4.745E+03
       0.007100         493.771       4.746E+03
       0.007110         493.819       4.747E+03
       0.007120         493.866       4.748E+03
       0.007130         493.914       4.750E+03
       0.007140         493.961       4.751E+03
       0.007150         494.009       4.752E+03
       0.007160         494.056       4.753E+03
       0.007170         494.104       4.755E+03
       0.007180         494.151       4.756E+03
       0.007190         494.199       4.757E+03
       0.007200         494.247       4.759E+03
       0.007210         494.294       4.760E+03
       0.007220         494.342       4.761E+03
       0.007230         494.389       4.762E+03
       0.007240         494.437       4.764E+03
       0.007250         494.485       4.765E+03
       0.007260         494.532       4.766E+03
       0.007270         494.580       4.767E+03
       0.007280         494.628       4.769E+03
       0.007290         494.675       4.770E+03
       0.007300         494.723       4.771E+03
       0.007310         494.771       4.773E+03
       0.007320         494.819       4.774E+03
       0.007330         494.866       4.775E+03
       0.007340         494.914       4.776E+03
       0.007350         494.962       4.778E+03
       0.007360         495.010       4.779E+03
       0.007370         495.057       4.780E+03
       0.007380         495.105       4.782E+03
       0.007390         495.153       4.783E+03
       0.007400         495.201       4.784E+03
       0.007410         495.249       4.785E+03
       0.007420         495.297       4.787E+03
       0.007430         495.344       4.788E+03
       0.007440         495.392       4.789E+03
       0.007450         495.440       4.791E+03
       0.007460         495.488       4.792E+03
       0.007470         495.536       4.793E+03
       0.007480         495.584       4.795E+03
       0.007490         495.632       4.796E+03
       0.007500         495.680       4.797E+03
       0.007510         495.728       4.798E+03
       0.007520         495.776       4.800E+03
       0.007530         495.824       4.801E+03
       0.007540         495.872       4.802E+03
       0.007550         495.920       4.804E+03
       0.007560         495.968       4.805E+03
       0.007570         496.016       4.806E+03
       0.007580         496.064       4.807E+03
       0.007590         496.112       4.809E+03
       0.007600         496.160       4.810E+03
       0.007610         496.208       4.811E+03
       0.007620         496.257       4.813E+03
       0.007630         496.305       4.814E+03
       0.007640         496.353       4.815E+03
       0.007650         496.401       4.817E+03
       0.007660         496.449       4.818E+03
       0.007670         496.497       4.819E+03
       0.007680         496.546       4.820E+03
       0.007690         496.594       4.822E+03
       0.007700         496.642       4.823E+03
       0.007710         496.690       4.824E+03
       0.007720         496.738       4.826E+03
       0.007730         496.787       4.827E+03
       0.007740         496.835       4.828E+03
       0.007750         496.883       4.830E+03
       0.007760         496.932       4.831E+03
       0.007770         496.980       4.832E+03
       0.007780         497.028       4.834E+03
       0.007790         497.077       4.835E+03
       0.007800         497.125       4.836E+03
       0.007810         497.173       4.837E+03
       0.007820         497.222       4.839E+03
       0.007830         497.270       4.840E+03
       0.007840         497.318       4.841E+03
       0.007850         497.367       4.843E+03
       0.007860         497.415       4.844E+03
       0.007870         497.464       4.845E+03
       0.007880         497.512       4.847E+03
       0.007890         497.561       4.848E+03
       0.007900         497.609       4.849E+03
       0.007910         497.658       4.851E+03
       0.007920         497.706       4.852E+03
       0.007930         497.755       4.853E+03
       0.007940         497.803       4.855E+03
       0.007950         497.852       4.856E+03
       0.007960         497.900       4.857E+03
       0.007970         497.949       4.858E+03
       0.007980         497.998       4.860E+03
       0.007990         498.046       4.861E+03
       0.008000         498.095       4.862E+03
       0.008010         498.143       4.864E+03
       0.008020         498.192       4.865E+03
       0.008030         498.241       4.866E+03
       0.008040         498.289       4.868E+03
       0.008050         498.338       4.869E+03
       0.008060         498.387       4.870E+03
       0.008070         498.435       4.872E+03
       0.008080         498.484       4.873E+03
       0.008090         498.533       4.874E+03
       0.008100         498.582       4.876E+03
       0.008110         498.630       4.877E+03
       0.008120         498.679       4.878E+03
       0.008130         498.728       4.880E+03
       0.008140         498.777       4.881E+03
       0.008150         498.826       4.882E+03
       0.008160         498.874       4.884E+03
       0.008170         498.923       4.885E+03
       0.008180         498.972       4.886E+03
       0.008190         499.021       4.888E+03
       0.008200         499.070       4.889E+03
       0.008210         499.119       4.890E+03
       0.008220         499.168       4.892E+03
       0.008230         499.217       4.893E+03
       0.008240         499.266       4.894E+03
       0.008250         499.315       4.896E+03
       0.008260         499.363       4.897E+03
       0.008270         499.412       4.898E+03
       0.008280         499.461       4.900E+03
       0.008290         499.510       4.901E+03
       0.008300         499.559       4.902E+03
       0.008310         499.609       4.904E+03
       0.008320         499.658       4.905E+03
       0.008330         499.707       4.906E+03
       0.008340         499.756       4.908E+03
       0.008350         499.805       4.909E+03
       0.008360         499.854       4.910E+03
       0.008370         499.903       4.912E+03
       0.008380         499.952       4.913E+03
       0.008390         500.001       4.914E+03
       0.008400         500.050       4.916E+03
       0.008410         500.100       4.917E+03
       0.008420         500.149       4.918E+03
       0.008430         500.198       4.920E+03
       0.008440         500.247       4.921E+03
       0.008450         500.296       4.922E+03
       0.008460         500.346       4.924E+03
       0.008470         500.395       4.925E+03
       0.008480         500.444       4.926E+03
       0.008490         500.493       4.928E+03
       0.008500         500.543       4.929E+03
       0.008510         500.592       4.930E+03
       0.008520         500.641       4.932E+03
       0.008530         500.691       4.933E+03
       0.008540         500.740       4.935E+03
       0.008550         500.789       4.936E+03
       0.008560         500.839       4.937E+03
       0.008570         500.888       4.939E+03
       0.008580         500.937       4.940E+03
       0.008590         500.987       4.941E+03
       0.008600         501.036       4.943E+03
       0.008610         501.086       4.944E+03
       0.008620         501.135       4.945E+03
       0.008630         501.185       4.947E+03
       0.008640         501.234       4.948E+03
       0.008650         501.284       4.949E+03
       0.008660         501.333       4.951E+03
       0.008670         501.383       4.952E+03
       0.008680         501.432       4.953E+03
       0.008690         501.482       4.955E+03
       0.008700         501.531       4.956E+03
       0.008710         501.581       4.958E+03
       0.008720         501.630       4.959E+03
       0.008730         501.680       4.960E+03
       0.008740         501.730       4.962E+03
       0.008750         501.779       4.963E+03
       0.008760         501.829       4.964E+03
       0.008770         501.878       4.966E+03
       0.008780         501.928       4.967E+03
       0.008790         501.978       4.968E+03
       0.008800         502.027       4.970E+03
       0.008810         502.077       4.971E+03
       0.008820         502.127       4.973E+03
       0.008830         502.177       4.974E+03
       0.008840         502.226       4.975E+03
       0.008850         502.276       4.977E+03
       0.008860         502.326       4.978E+03
       0.008870         502.376       4.979E+03
       0.008880         502.426       4.981E+03
       0.008890         502.475       4.982E+03
       0.008900         502.525       4.984E+03
       0.008910         502.575       4.985E+03
       0.008920         502.625       4.986E+03
       0.008930         502.675       4.988E+03
       0.008940         502.725       4.989E+03
       0.008950         502.775       4.990E+03
       0.008960         502.824       4.992E+03
       0.008970         502.874       4.993E+03
       0.008980         502.924       4.994E+03
       0.008990         502.974       4.996E+03
       0.009000         503.024       4.997E+03
       0.009010         503.074       4.999E+03
       0.009020         503.124       5.000E+03
       0.009030         503.174       5.001E+03
       0.009040         503.224       5.003E+03
       0.009050         503.274       5.004E+03
       0.009060         503.324       5.006E+03
       0.009070         503.374       5.007E+03
       0.009080         503.424       5.008E+03
       0.009090         503.475       5.010E+03
       0.009100         503.525       5.011E+03
       0.009110         503.575       5.012E+03
       0.009120         503.625       5.014E+03
       0.009130         503.675       5.015E+03
       0.009140         503.725       5.017E+03
       0.009150         503.775       5.018E+03
       0.009160         503.826       5.019E+03
       0.009170         503.876       5.021E+03
       0.009180         503.926       5.022E+03
       0.009190         503.976       5.024E+03
       0.009200         504.026       5.025E+03
       0.009210         504.077       5.026E+03
       0.009220         504.127       5.028E+03
       0.009230         504.177       5.029E+03
       0.009240         504.228       5.030E+03
       0.009250         504.278       5.032E+03
       0.009260         504.328       5.033E+03
       0.009270         504.379       5.035E+03
       0.009280         504.429       5.036E+03
       0.009290         504.479       5.037E+03
       0.009300         504.530       5.039E+03
       0.009310         504.580       5.040E+03
       0.009320         504.630       5.042E+03
       0.009330         504.681       5.043E+03
       0.009340         504.731       5.044E+03
       0.009350         504.782       5.046E+03
       0.009360         504.832       5.047E+03
       0.009370         504.883       5.049E+03
       0.009380         504.933       5.050E+03
       0.009390         504.984       5.051E+03
       0.009400         505.034       5.053E+03
       0.009410         505.085       5.054E+03
       0.009420         505.135       5.056E+03
       0.009430         505.186       5.057E+03
       0.009440         505.236       5.058E+03
       0.009450         505.287       5.060E+03
       0.009460         505.338       5.061E+03
       0.009470         505.388       5.063E+03
       0.009480         505.439       5.064E+03
       0.009490         505.490       5.065E+03
       0.009500         505.540       5.067E+03
       0.009510         505.591       5.068E+03
       0.009520         505.642       5.070E+03
       0.009530         505.692       5.071E+03
       0.009540         505.743       5.072E+03
       0.009550         505.794       5.074E+03
       0.009560         505.844       5.075E+03
       0.009570         505.895       5.077E+03
       0.009580         505.946       5.078E+03
       0.009590         505.997       5.080E+03
       0.009600         506.048       5.081E+03
       0.009610         506.098       5.082E+03
       0.009620         506.149       5.084E+03
       0.009630         506.200       5.085E+03
       0.009640         506.251       5.087E+03
       0.009650         506.302       5.088E+03
       0.009660         506.353       5.089E+03
       0.009670         506.404       5.091E+03
       0.009680         506.455       5.092E+03
       0.009690         506.505       5.094E+03
       0.009700         506.556       5.095E+03
       0.009710         506.607       5.096E+03
       0.009720         506.658       5.098E+03
       0.009730         506.709       5.099E+03
       0.009740         506.760       5.101E+03
       0.009750         506.811       5.102E+03
       0.009760         506.862       5.104E+03
       0.009770         506.913       5.105E+03
       0.009780         506.964       5.106E+03
       0.009790         507.016       5.108E+03
       0.009800         507.067       5.109E+03
       0.009810         507.118       5.111E+03
       0.009820         507.169       5.112E+03
       0.009830         507.220       5.114E+03
       0.009840         507.271       5.115E+03
       0.009850         507.322       5.116E+03
       0.009860         507.373       5.118E+03
       0.009870         507.425       5.119E+03
       0.009880         507.476       5.121E+03
       0.009890         507.527       5.122E+03
       0.009900         507.578       5.124E+03
       0.009910         507.630       5.125E+03
       0.009920         507.681       5.126E+03
       0.009930         507.732       5.128E+03
       0.009940         507.783       5.129E+03
       0.009950         507.835       5.131E+03
       0.009960         507.886       5.132E+03
       0.009970         507.937       5.134E+03
       0.009980         507.989       5.135E+03
       0.009990         508.040       5.136E+03
       0.010000         508.091       5.138E+03
       0.010010         508.143       5.139E+03
       0.010020         508.194       5.141E+03
       0.010030         508.246       5.142E+03
       0.010040         508.297       5.144E+03
       0.010050         508.348       5.145E+03
       0.010060         508.400       5.147E+03
       0.010070         508.451       5.148E+03
       0.010080         508.503       5.149E+03
       0.010090         508.554       5.151E+03
       0.010100         508.606       5.152E+03
       0.010110         508.657       5.154E+03
       0.010120         508.709       5.155E+03
       0.010130         508.761       5.157E+03
       0.010140         508.812       5.158E+03
       0.010150         508.864       5.160E+03
       0.010160         508.915       5.161E+03
       0.010170         508.967       5.162E+03
       0.010180         509.019       5.164E+03
       0.010190         509.070       5.165E+03
       0.010200         509.122       5.167E+03
       0.010210         509.174       5.168E+03
       0.010220         509.225       5.170E+03
       0.010230         509.277       5.171E+03
       0.010240         509.329       5.173E+03
       0.010250         509.380       5.174E+03
       0.010260         509.432       5.175E+03
       0.010270         509.484       5.177E+03
       0.010280         509.536       5.178E+03
       0.010290         509.587       5.180E+03
       0.010300         509.639       5.181E+03
       0.010310         509.691       5.183E+03
       0.010320         509.743       5.184E+03
       0.010330         509.795       5.186E+03
       0.010340         509.847       5.187E+03
       0.010350         509.898       5.189E+03
       0.010360         509.950       5.190E+03
       0.010370         510.002       5.192E+03
       0.010380         510.054       5.193E+03
       0.010390         510.106       5.194E+03
       0.010400         510.158       5.196E+03
       0.010410         510.210       5.197E+03
       0.010420         510.262       5.199E+03
       0.010430         510.314       5.200E+03
       0.010440         510.366       5.202E+03
       0.010450         510.418       5.203E+03
       0.010460         510.470       5.205E+03
       0.010470         510.522       5.206E+03
       0.010480         510.574       5.208E+03
       0.010490         510.626       5.209E+03
       0.010500         510.678       5.211E+03
       0.010510         510.731       5.212E+03
       0.010520         510.783       5.213E+03
       0.010530         510.835       5.215E+03
       0.010540         510.887       5.216E+03
       0.010550         510.939       5.218E+03
       0.010560         510.991       5.219E+03
       0.010570         511.044       5.221E+03
       0.010580         511.096       5.222E+03
       0.010590         511.148       5.224E+03
       0.010600         511.200       5.225E+03
       0.010610         511.252       5.227E+03
       0.010620         511.305       5.228E+03
       0.010630         511.357       5.230E+03
       0.010640         511.409       5.231E+03
       0.010650         511.462       5.233E+03
       0.010660         511.514       5.234E+03
       0.010670         511.566       5.236E+03
       0.010680         511.619       5.237E+03
       0.010690         511.671       5.239E+03
       0.010700         511.724       5.240E+03
       0.010710         511.776       5.242E+03
       0.010720         511.828       5.243E+03
       0.010730         511.881       5.245E+03
       0.010740         511.933       5.246E+03
       0.010750         511.986       5.247E+03
       0.010760         512.038       5.249E+03
       0.010770         512.091       5.250E+03
       0.010780         512.143       5.252E+03
       0.010790         512.196       5.253E+03
       0.010800         512.248       5.255E+03
       0.010810         512.301       5.256E+03
       0.010820         512.353       5.258E+03
       0.010830         512.406       5.259E+03
       0.010840         512.459       5.261E+03
       0.010850         512.511       5.262E+03
       0.010860         512.564       5.264E+03
       0.010870         512.616       5.265E+03
       0.010880         512.669       5.267E+03
       0.010890         512.722       5.268E+03
       0.010900         512.774       5.270E+03
       0.010910         512.827       5.271E+03
       0.010920         512.880       5.273E+03
       0.010930         512.933       5.274E+03
       0.010940         512.985       5.276E+03
       0.010950         513.038       5.277E+03
       0.010960         513.091       5.279E+03
       0.010970         513.144       5.280E+03
       0.010980         513.197       5.282E+03
       0.010990         513.249       5.283E+03
       0.011000         513.302       5.285E+03
       0.011010         513.355       5.286E+03
       0.011020         513.408       5.288E+03
       0.011030         513.461       5.289E+03
       0.011040         513.514       5.291E+03
       0.011050         513.567       5.292E+03
       0.011060         513.620       5.294E+03
       0.011070         513.673       5.295E+03
       0.011080         513.726       5.297E+03
       0.011090         513.778       5.298E+03
       0.011100         513.831       5.300E+03
       0.011110         513.884       5.301E+03
       0.011120         513.937       5.303E+03
       0.011130         513.991       5.304E+03
       0.011140         514.044       5.306E+03
       0.011150         514.097       5.307E+03
       0.011160         514.150       5.309E+03
       0.011170         514.203       5.310E+03
       0.011180         514.256       5.312E+03
       0.011190         514.309       5.313E+03
       0.011200         514.362       5.315E+03
       0.011210         514.415       5.316E+03
       0.011220         514.469       5.318E+03
       0.011230         514.522       5.320E+03
       0.011240         514.575       5.321E+03
       0.011250         514.628       5.323E+03
       0.011260         514.681       5.324E+03
       0.011270         514.735       5.326E+03
       0.011280         514.788       5.327E+03
       0.011290         514.841       5.329E+03
       0.011300         514.894       5.330E+03
       0.011310         514.948       5.332E+03
       0.011320         515.001       5.333E+03
       0.011330         515.054       5.335E+03
       0.011340         515.108       5.336E+03
       0.011350         515.161       5.338E+03
       0.011360         515.215       5.339E+03
       0.011370         515.268       5.341E+03
       0.011380         515.321       5.342E+03
       0.011390         515.375       5.344E+03
       0.011400         515.428       5.345E+03
       0.011410         515.482       5.347E+03
       0.011420         515.535       5.348E+03
       0.011430         515.589       5.350E+03
       0.011440         515.642       5.351E+03
       0.011450         515.696       5.353E+03
       0.011460         515.749       5.355E+03
       0.011470         515.803       5.356E+03
       0.011480         515.856       5.358E+03
       0.011490         515.910       5.359E+03
       0.011500         515.964       5.361E+03
       0.011510         516.017       5.362E+03
       0.011520         516.071       5.364E+03
       0.011530         516.124       5.365E+03
       0.011540         516.178       5.367E+03
       0.011550         516.232       5.368E+03
       0.011560         516.285       5.370E+03
       0.011570         516.339       5.371E+03
       0.011580         516.393       5.373E+03
       0.011590         516.447       5.375E+03
       0.011600         516.500       5.376E+03
       0.011610         516.554       5.378E+03
       0.011620         516.608       5.379E+03
       0.011630         516.662       5.381E+03
       0.011640         516.716       5.382E+03
       0.011650         516.769       5.384E+03
       0.011660         516.823       5.385E+03
       0.011670         516.877       5.387E+03
       0.011680         516.931       5.388E+03
       0.011690         516.985       5.390E+03
       0.011700         517.039       5.392E+03
       0.011710         517.093       5.393E+03
       0.011720         517.147       5.395E+03
       0.011730         517.201       5.396E+03
       0.011740         517.255       5.398E+03
       0.011750         517.309       5.399E+03
       0.011760         517.363       5.401E+03
       0.011770         517.417       5.402E+03
       0.011780         517.471       5.404E+03
       0.011790         517.525       5.405E+03
       0.011800         517.579       5.407E+03
       0.011810         517.633       5.409E+03
       0.011820         517.687       5.410E+03
       0.011830         517.741       5.412E+03
       0.011840         517.795       5.413E+03
       0.011850         517.849       5.415E+03
       0.011860         517.903       5.416E+03
       0.011870         517.958       5.418E+03
       0.011880         518.012       5.420E+03
       0.011890         518.066       5.421E+03
       0.011900         518.120       5.423E+03
       0.011910         518.174       5.424E+03
       0.011920         518.229       5.426E+03
       0.011930         518.283       5.427E+03
       0.011940         518.337       5.429E+03
       0.011950         518.392       5.430E+03
       0.011960         518.446       5.432E+03
       0.011970         518.500       5.434E+03
       0.011980         518.555       5.435E+03
       0.011990         518.609       5.437E+03
       0.012000         518.663       5.438E+03
       0.012010         518.718       5.440E+03
       0.012020         518.772       5.441E+03
       0.012030         518.826       5.443E+03
       0.012040         518.881       5.445E+03
       0.012050         518.935       5.446E+03
       0.012060         518.990       5.448E+03
       0.012070         519.044       5.449E+03
       0.012080         519.099       5.451E+03
       0.012090         519.153       5.452E+03
       0.012100         519.208       5.454E+03
       0.012110         519.262       5.456E+03
       0.012120         519.317       5.457E+03
       0.012130         519.372       5.459E+03
       0.012140         519.426       5.460E+03
       0.012150         519.481       5.462E+03
       0.012160         519.535       5.463E+03
       0.012170         519.590       5.465E+03
       0.012180         519.645       5.467E+03
       0.012190         519.699       5.468E+03
       0.012200         519.754       5.470E+03
       0.012210         519.809       5.471E+03
       0.012220         519.863       5.473E+03
       0.012230         519.918       5.475E+03
       0.012240         519.973       5.476E+03
       0.012250         520.028       5.478E+03
       0.012260         520.083       5.479E+03
       0.012270         520.137       5.481E+03
       0.012280         520.192       5.483E+03
       0.012290         520.247       5.484E+03
       0.012300         520.302       5.486E+03
       0.012310         520.357       5.487E+03
       0.012320         520.412       5.489E+03
       0.012330         520.466       5.490E+03
       0.012340         520.521       5.492E+03
       0.012350         520.576       5.494E+03
       0.012360         520.631       5.495E+03
       0.012370         520.686       5.497E+03
       0.012380         520.741       5.498E+03
       0.012390         520.796       5.500E+03
       0.012400         520.851       5.502E+03
       0.012410         520.906       5.503E+03
       0.012420         520.961       5.505E+03
       0.012430         521.016       5.506E+03
       0.012440         521.071       5.508E+03
       0.012450         521.126       5.510E+03
       0.012460         521.182       5.511E+03
       0.012470         521.237       5.513E+03
       0.012480         521.292       5.514E+03
       0.012490         521.347       5.516E+03
       0.012500         521.402       5.518E+03
       0.012510         521.457       5.519E+03
       0.012520         521.513       5.521E+03
       0.012530         521.568       5.522E+03
       0.012540         521.623       5.524E+03
       0.012550         521.678       5.526E+03
       0.012560         521.734       5.527E+03
       0.012570         521.789       5.529E+03
       0.012580         521.844       5.531E+03
       0.012590         521.899       5.532E+03
       0.012600         521.955       5.534E+03
       0.012610         522.010       5.535E+03
       0.012620         522.065       5.537E+03
       0.012630         522.121       5.539E+03
       0.012640         522.176       5.540E+03
       0.012650         522.232       5.542E+03
       0.012660         522.287       5.543E+03
       0.012670         522.343       5.545E+03
       0.012680         522.398       5.547E+03
       0.012690         522.453       5.548E+03
       0.012700         522.509       5.550E+03
       0.012710         522.564       5.552E+03
       0.012720         522.620       5.553E+03
       0.012730         522.676       5.555E+03
       0.012740         522.731       5.556E+03
       0.012750         522.787       5.558E+03
       0.012760         522.842       5.560E+03
       0.012770         522.898       5.561E+03
       0.012780         522.953       5.563E+03
       0.012790         523.009       5.565E+03
       0.012800         523.065       5.566E+03
       0.012810         523.120       5.568E+03
       0.012820         523.176       5.569E+03
       0.012830         523.232       5.571E+03
       0.012840         523.288       5.573E+03
       0.012850         523.343       5.574E+03
       0.012860         523.399       5.576E+03
       0.012870         523.455       5.578E+03
       0.012880         523.511       5.579E+03
       0.012890         523.566       5.581E+03
       0.012900         523.622       5.582E+03
       0.012910         523.678       5.584E+03
       0.012920         523.734       5.586E+03
       0.012930         523.790       5.587E+03
       0.012940         523.846       5.589E+03
       0.012950         523.901       5.591E+03
       0.012960         523.957       5.592E+03
       0.012970         524.013       5.594E+03
       0.012980         524.069       5.596E+03
       0.012990         524.125       5.597E+03
       0.013000         524.181       5.599E+03
       0.013010         524.237       5.600E+03
       0.013020         524.293       5.602E+03
       0.013030         524.349       5.604E+03
       0.013040         524.405       5.605E+03
       0.013050         524.461       5.607E+03
       0.013060         524.517       5.609E+03
       0.013070         524.574       5.610E+03
       0.013080         524.630       5.612E+03
       0.013090         524.686       5.614E+03
       0.013100         524.742       5.615E+03
       0.013110         524.798       5.617E+03
       0.013120         524.854       5.619E+03
       0.013130         524.910       5.620E+03
       0.013140         524.967       5.622E+03
       0.013150         525.023       5.624E+03
       0.013160         525.079       5.625E+03
       0.013170         525.135       5.627E+03
       0.013180         525.192       5.629E+03
       0.013190         525.248       5.630E+03
       0.013200         525.304       5.632E+03
       0.013210         525.361       5.634E+03
       0.013220         525.417       5.635E+03
       0.013230         525.473       5.637E+03
       0.013240         525.530       5.638E+03
       0.013250         525.586       5.640E+03
       0.013260         525.643       5.642E+03
       0.013270         525.699       5.643E+03
       0.013280         525.755       5.645E+03
       0.013290         525.812       5.647E+03
       0.013300         525.868       5.648E+03
       0.013310         525.925       5.650E+03
       0.013320         525.981       5.652E+03
       0.013330         526.038       5.653E+03
       0.013340         526.094       5.655E+03
       0.013350         526.151       5.657E+03
       0.013360         526.208       5.658E+03
       0.013370         526.264       5.660E+03
       0.013380         526.321       5.662E+03
       0.013390         526.377       5.663E+03
       0.013400         526.434       5.665E+03
       0.013410         526.491       5.667E+03
       0.013420         526.547       5.669E+03
       0.013430         526.604       5.670E+03
       0.013440         526.661       5.672E+03
       0.013450         526.717       5.674E+03
       0.013460         526.774       5.675E+03
       0.013470         526.831       5.677E+03
       0.013480         526.888       5.679E+03
       0.013490         526.945       5.680E+03
       0.013500         527.001       5.682E+03
       0.013510         527.058       5.684E+03
       0.013520         527.115       5.685E+03
       0.013530         527.172       5.687E+03
       0.013540         527.229       5.689E+03
       0.013550         527.286       5.690E+03
       0.013560         527.343       5.692E+03
       0.013570         527.400       5.694E+03
       0.013580         527.456       5.695E+03
       0.013590         527.513       5.697E+03
       0.013600         527.570       5.699E+03
       0.013610         527.627       5.700E+03
       0.013620         527.684       5.702E+03
       0.013630         527.741       5.704E+03
       0.013640         527.798       5.706E+03
       0.013650         527.856       5.707E+03
       0.013660         527.913       5.709E+03
       0.013670         527.970       5.711E+03
       0.013680         528.027       5.712E+03
       0.013690         528.084       5.714E+03
       0.013700         528.141       5.716E+03
       0.013710         528.198       5.717E+03
       0.013720         528.255       5.719E+03
       0.013730         528.313       5.721E+03
       0.013740         528.370       5.722E+03
       0.013750         528.427       5.724E+03
       0.013760         528.484       5.726E+03
       0.013770         528.542       5.728E+03
       0.013780         528.599       5.729E+03
       0.013790         528.656       5.731E+03
       0.013800         528.714       5.733E+03
       0.013810         528.771       5.734E+03
       0.013820         528.828       5.736E+03
       0.013830         528.886       5.738E+03
       0.013840         528.943       5.740E+03
       0.013850         529.000       5.741E+03
       0.013860         529.058       5.743E+03
       0.013870         529.115       5.745E+03
       0.013880         529.173       5.746E+03
       0.013890         529.230       5.748E+03
       0.013900         529.288       5.750E+03
       0.013910         529.345       5.751E+03
       0.013920         529.403       5.753E+03
       0.013930         529.460       5.755E+03
       0.013940         529.518       5.757E+03
       0.013950         529.575       5.758E+03
       0.013960         529.633       5.760E+03
       0.013970         529.691       5.762E+03
       0.013980         529.748       5.763E+03
       0.013990         529.806       5.765E+03
       0.014000         529.863       5.767E+03
       0.014010         529.921       5.769E+03
       0.014020         529.979       5.770E+03
       0.014030         530.037       5.772E+03
       0.014040         530.094       5.774E+03
       0.014050         530.152       5.776E+03
       0.014060         530.210       5.777E+03
       0.014070         530.268       5.779E+03
       0.014080         530.325       5.781E+03
       0.014090         530.383       5.782E+03
       0.014100         530.441       5.784E+03
       0.014110         530.499       5.786E+03
       0.014120         530.557       5.788E+03
       0.014130         530.615       5.789E+03
       0.014140         530.673       5.791E+03
       0.014150         530.730       5.793E+03
       0.014160         530.788       5.795E+03
       0.014170         530.846       5.796E+03
       0.014180         530.904       5.798E+03
       0.014190         530.962       5.800E+03
       0.014200         531.020       5.802E+03
       0.014210         531.078       5.803E+03
       0.014220         531.136       5.805E+03
       0.014230         531.194       5.807E+03
       0.014240         531.253       5.808E+03
       0.014250         531.311       5.810E+03
       0.014260         531.369       5.812E+03
       0.014270         531.427       5.814E+03
       0.014280         531.485       5.815E+03
       0.014290         531.543       5.817E+03
       0.014300         531.601       5.819E+03
       0.014310         531.660       5.821E+03
       0.014320         531.718       5.822E+03
       0.014330         531.776       5.824E+03
       0.014340         531.834       5.826E+03
       0.014350         531.893       5.828E+03
       0.014360         531.951       5.829E+03
       0.014370         532.009       5.831E+03
       0.014380         532.067       5.833E+03
       0.014390         532.126       5.835E+03
       0.014400         532.184       5.836E+03
       0.014410         532.242       5.838E+03
       0.014420         532.301       5.840E+03
       0.014430         532.359       5.842E+03
       0.014440         532.418       5.843E+03
       0.014450         532.476       5.845E+03
       0.014460         532.535       5.847E+03
       0.014470         532.593       5.849E+03
       0.014480         532.652       5.850E+03
       0.014490         532.710       5.852E+03
       0.014500         532.769       5.854E+03
       0.014510         532.827       5.856E+03
       0.014520         532.886       5.857E+03
       0.014530         532.944       5.859E+03
       0.014540         533.003       5.861E+03
       0.014550         533.062       5.863E+03
       0.014560         533.120       5.865E+03
       0.014570         533.179       5.866E+03
       0.014580         533.238       5.868E+03
       0.014590         533.296       5.870E+03
       0.014600         533.355       5.872E+03
       0.014610         533.414       5.873E+03
       0.014620         533.472       5.875E+03
       0.014630         533.531       5.877E+03
       0.014640         533.590       5.879E+03
       0.014650         533.649       5.880E+03
       0.014660         533.708       5.882E+03
       0.014670         533.766       5.884E+03
       0.014680         533.825       5.886E+03
       0.014690         533.884       5.888E+03
       0.014700         533.943       5.889E+03
       0.014710         534.002       5.891E+03
       0.014720         534.061       5.893E+03
       0.014730         534.120       5.895E+03
       0.014740         534.179       5.896E+03
       0.014750         534.238       5.898E+03
       0.014760         534.297       5.900E+03
       0.014770         534.356       5.902E+03
       0.014780         534.415       5.904E+03
       0.014790         534.474       5.905E+03
       0.014800         534.533       5.907E+03
       0.014810         534.592       5.909E+03
       0.014820         534.651       5.911E+03
       0.014830         534.710       5.913E+03
       0.014840         534.769       5.914E+03
       0.014850         534.828       5.916E+03
       0.014860         534.888       5.918E+03
       0.014870         534.947       5.920E+03
       0.014880         535.006       5.921E+03
       0.014890         535.065       5.923E+03
       0.014900         535.124       5.925E+03
       0.014910         535.184       5.927E+03
       0.014920         535.243       5.929E+03
       0.014930         535.302       5.930E+03
       0.014940         535.362       5.932E+03
       0.014950         535.421       5.934E+03
       0.014960         535.480       5.936E+03
       0.014970         535.540       5.938E+03
       0.014980         535.599       5.939E+03
       0.014990         535.658       5.941E+03
       0.015000         535.718       5.943E+03
       0.015010         535.777       5.945E+03
       0.015020         535.837       5.947E+03
       0.015030         535.896       5.948E+03
       0.015040         535.956       5.950E+03
       0.015050         536.015       5.952E+03
       0.015060         536.075       5.954E+03
       0.015070         536.134       5.956E+03
       0.015080         536.194       5.958E+03
       0.015090         536.253       5.959E+03
       0.015100         536.313       5.961E+03
       0.015110         536.373       5.963E+03
       0.015120         536.432       5.965E+03
       0.015130         536.492       5.967E+03
       0.015140         536.552       5.968E+03
       0.015150         536.611       5.970E+03
       0.015160         536.671       5.972E+03
       0.015170         536.731       5.974E+03
       0.015180         536.791       5.976E+03
       0.015190         536.850       5.978E+03
       0.015200         536.910       5.979E+03
       0.015210         536.970       5.981E+03
       0.015220         537.030       5.983E+03
       0.015230         537.090       5.985E+03
       0.015240         537.149       5.987E+03
       0.015250         537.209       5.988E+03
       0.015260         537.269       5.990E+03
       0.015270         537.329       5.992E+03
       0.015280         537.389       5.994E+03
       0.015290         537.449       5.996E+03
       0.015300         537.509       5.998E+03
       0.015310         537.569       5.999E+03
       0.015320         537.629       6.001E+03
       0.015330         537.689       6.003E+03
       0.015340         537.749       6.005E+03
       0.015350         537.809       6.007E+03
       0.015360         537.869       6.009E+03
       0.015370         537.929       6.010E+03
       0.015380         537.989       6.012E+03
       0.015390         538.049       6.014E+03
       0.015400         538.110       6.016E+03
       0.015410         538.170       6.018E+03
       0.015420         538.230       6.020E+03
       0.015430         538.290       6.021E+03
       0.015440         538.350       6.023E+03
       0.015450         538.411       6.025E+03
       0.015460         538.471       6.027E+03
       0.015470         538.531       6.029E+03
       0.015480         538.591       6.031E+03
       0.015490         538.652       6.033E+03
       0.015500         538.712       6.034E+03
       0.015510         538.772       6.036E+03
       0.015520         538.833       6.038E+03
       0.015530         538.893       6.040E+03
       0.015540         538.954       6.042E+03
       0.015550         539.014       6.044E+03
       0.015560         539.074       6.045E+03
       0.015570         539.135       6.047E+03
       0.015580         539.195       6.049E+03
       0.015590         539.256       6.051E+03
       0.015600         539.316       6.053E+03
       0.015610         539.377       6.055E+03
       0.015620         539.438       6.057E+03
       0.015630         539.498       6.058E+03
       0.015640         539.559       6.060E+03
       0.015650         539.619       6.062E+03
       0.015660         539.680       6.064E+03
       0.015670         539.741       6.066E+03
       0.015680         539.801       6.068E+03
       0.015690         539.862       6.070E+03
       0.015700         539.923       6.071E+03
       0.015710         539.983       6.073E+03
       0.015720         540.044       6.075E+03
       0.015730         540.105       6.077E+03
       0.015740         540.166       6.079E+03
       0.015750         540.226       6.081E+03
       0.015760         540.287       6.083E+03
       0.015770         540.348       6.085E+03
       0.015780         540.409       6.086E+03
       0.015790         540.470       6.088E+03
       0.015800         540.531       6.090E+03
       0.015810         540.592       6.092E+03
       0.015820         540.653       6.094E+03
       0.015830         540.714       6.096E+03
       0.015840         540.775       6.098E+03
       0.015850         540.836       6.100E+03
       0.015860         540.897       6.101E+03
       0.015870         540.958       6.103E+03
       0.015880         541.019       6.105E+03
       0.015890         541.080       6.107E+03
       0.015900         541.141       6.109E+03
       0.015910         541.202       6.111E+03
       0.015920         541.263       6.113E+03
       0.015930         541.324       6.115E+03
       0.015940         541.385       6.117E+03
       0.015950         541.446       6.118E+03
       0.015960         541.508       6.120E+03
       0.015970         541.569       6.122E+03
       0.015980         541.630       6.124E+03
       0.015990         541.691       6.126E+03
       0.016000         541.753       6.128E+03
       0.016010         541.814       6.130E+03
       0.016020         541.875       6.132E+03
       0.016030         541.936       6.134E+03
       0.016040         541.998       6.135E+03
       0.016050         542.059       6.137E+03
       0.016060         542.121       6.139E+03
       0.016070         542.182       6.141E+03
       0.016080         542.243       6.143E+03
       0.016090         542.305       6.145E+03
       0.016100         542.366       6.147E+03
       0.016110         542.428       6.149E+03
       0.016120         542.489       6.151E+03
       0.016130         542.551       6.153E+03
       0.016140         542.612       6.154E+03
       0.016150         542.674       6.156E+03
       0.016160         542.735       6.158E+03
       0.016170         542.797       6.160E+03
       0.016180         542.859       6.162E+03
       0.016190         542.920       6.164E+03
       0.016200         542.982       6.166E+03
       0.016210         543.044       6.168E+03
       0.016220         543.105       6.170E+03
       0.016230         543.167       6.172E+03
       0.016240         543.229       6.174E+03
       0.016250         543.290       6.175E+03
       0.016260         543.352       6.177E+03
       0.016270         543.414       6.179E+03
       0.016280         543.476       6.181E+03
       0.016290         543.538       6.183E+03
       0.016300         543.599       6.185E+03
       0.016310         543.661       6.187E+03
       0.016320         543.723       6.189E+03
       0.016330         543.785       6.191E+03
       0.016340         543.847       6.193E+03
       0.016350         543.909       6.195E+03
       0.016360         543.971       6.197E+03
       0.016370         544.033       6.199E+03
       0.016380         544.095       6.200E+03
       0.016390         544.157       6.202E+03
       0.016400         544.219       6.204E+03
       0.016410         544.281       6.206E+03
       0.016420         544.343       6.208E+03
       0.016430         544.405       6.210E+03
       0.016440         544.467       6.212E+03
       0.016450         544.529       6.214E+03
       0.016460         544.592       6.216E+03
       0.016470         544.654       6.218E+03
       0.016480         544.716       6.220E+03
       0.016490         544.778       6.222E+03
       0.016500         544.840       6.224E+03
       0.016510         544.903       6.226E+03
       0.016520         544.965       6.228E+03
       0.016530         545.027       6.229E+03
       0.016540         545.089       6.231E+03
       0.016550         545.152       6.233E+03
       0.016560         545.214       6.235E+03
       0.016570         545.277       6.237E+03
       0.016580         545.339       6.239E+03
       0.016590         545.401       6.241E+03
       0.016600         545.464       6.243E+03
       0.016610         545.526       6.245E+03
       0.016620         545.589       6.247E+03
       0.016630         545.651       6.249E+03
       0.016640         545.714       6.251E+03
       0.016650         545.776       6.253E+03
       0.016660         545.839       6.255E+03
       0.016670         545.901       6.257E+03
       0.016680         545.964       6.259E+03
       0.016690         546.026       6.261E+03
       0.016700         546.089       6.263E+03
       0.016710         546.152       6.265E+03
       0.016720         546.214       6.267E+03
       0.016730         546.277       6.269E+03
       0.016740         546.340       6.270E+03
       0.016750         546.402       6.272E+03
       0.016760         546.465       6.274E+03
       0.016770         546.528       6.276E+03
       0.016780         546.591       6.278E+03
       0.016790         546.653       6.280E+03
       0.016800         546.716       6.282E+03
       0.016810         546.779       6.284E+03
       0.016820         546.842       6.286E+03
       0.016830         546.905       6.288E+03
       0.016840         546.968       6.290E+03
       0.016850         547.031       6.292E+03
       0.016860         547.094       6.294E+03
       0.016870         547.156       6.296E+03
       0.016880         547.219       6.298E+03
       0.016890         547.282       6.300E+03
       0.016900         547.345       6.302E+03
       0.016910         547.408       6.304E+03
       0.016920         547.472       6.306E+03
       0.016930         547.535       6.308E+03
       0.016940         547.598       6.310E+03
       0.016950         547.661       6.312E+03
       0.016960         547.724       6.314E+03
       0.016970         547.787       6.316E+03
       0.016980         547.850       6.318E+03
       0.016990         547.913       6.320E+03
       0.017000         547.977       6.322E+03
       0.017010         548.040       6.324E+03
       0.017020         548.103       6.326E+03
       0.017030         548.166       6.328E+03
       0.017040         548.230       6.330E+03
       0.017050         548.293       6.332E+03
       0.017060         548.356       6.334E+03
       0.017070         548.420       6.336E+03
       0.017080         548.483       6.338E+03
       0.017090         548.546       6.340E+03
       0.017100         548.610       6.342E+03
       0.017110         548.673       6.344E+03
       0.017120         548.737       6.346E+03
       0.017130         548.800       6.348E+03
       0.017140         548.864       6.350E+03
       0.017150         548.927       6.352E+03
       0.017160         548.991       6.354E+03
       0.017170         549.054       6.356E+03
       0.017180         549.118       6.358E+03
       0.017190         549.181       6.360E+03
       0.017200         549.245       6.362E+03
       0.017210         549.309       6.364E+03
       0.017220         549.372       6.366E+03
       0.017230         549.436       6.368E+03
       0.017240         549.500       6.370E+03
       0.017250         549.563       6.372E+03
       0.017260         549.627       6.374E+03
       0.017270         549.691       6.376E+03
       0.017280         549.755       6.378E+03
       0.017290         549.818       6.380E+03
       0.017300         549.882       6.382E+03
       0.017310         549.946       6.384E+03
       0.017320         550.010       6.386E+03
       0.017330         550.074       6.388E+03
       0.017340         550.138       6.390E+03
       0.017350         550.202       6.392E+03
       0.017360         550.266       6.394E+03
       0.017370         550.329       6.396E+03
       0.017380         550.393       6.398E+03
       0.017390         550.457       6.400E+03
       0.017400         550.521       6.402E+03
       0.017410         550.585       6.404E+03
       0.017420         550.650       6.406E+03
       0.017430         550.714       6.408E+03
       0.017440         550.778       6.410E+03
       0.017450         550.842       6.412E+03
       0.017460         550.906       6.414E+03
       0.017470         550.970       6.416E+03
       0.017480         551.034       6.418E+03
       0.017490         551.098       6.421E+03
       0.017500         551.163       6.423E+03
       0.017510         551.227       6.425E+03
       0.017520         551.291       6.427E+03
       0.017530         551.355       6.429E+03
       0.017540         551.420       6.431E+03
       0.017550         551.484       6.433E+03
       0.017560         551.548       6.435E+03
       0.017570         551.613       6.437E+03
       0.017580         551.677       6.439E+03
       0.017590         551.742       6.441E+03
       0.017600         551.806       6.443E+03
       0.017610         551.870       6.445E+03
       0.017620         551.935       6.447E+03
       0.017630         551.999       6.449E+03
       0.017640         552.064       6.451E+03
       0.017650         552.128       6.453E+03
       0.017660         552.193       6.455E+03
       0.017670         552.257       6.457E+03
       0.017680         552.322       6.459E+03
       0.017690         552.387       6.461E+03
       0.017700         552.451       6.464E+03
       0.017710         552.516       6.466E+03
       0.017720         552.581       6.468E+03
       0.017730         552.645       6.470E+03
       0.017740         552.710       6.472E+03
       0.017750         552.775       6.474E+03
       0.017760         552.839       6.476E+03
       0.017770         552.904       6.478E+03
       0.017780         552.969       6.480E+03
